'OMNIDIRECTIONAL FLUENCE ANALYSIS'
'MULASSIS tag ml-v01-26'
'geant4-10-01-patch-03 (5-February-2016)'
'File Created: Tue Nov 12 23:49:28 2024'
'FLU_BDY',  1, 2, ' '
'FLU_PAR', -1, 'proton', ' '
'FLU_AMN',  1,   0., 'deg'
'FLU_AMX',  1, 180., 'deg'
Lower edge of energy bin [keV], Upper edge of energy bin [keV], Mean energy of bin [keV], Fluence [particles/cm2/bin], Error in fluence/flux [particles/cm2/bin]
 1.0000e+00, 1.2589e+00, 0.0000e+00, 0.0000e+00, 0.0000e+00
 1.2589e+00, 1.5849e+00, 0.0000e+00, 0.0000e+00, 0.0000e+00
 1.5849e+00, 1.9953e+00, 1.8696e+00, 1.7291e+07, 1.0356e+07
 1.9953e+00, 2.5119e+00, 2.4910e+00, 3.7195e+06, 3.7195e+06
 2.5119e+00, 3.1623e+00, 2.8766e+00, 2.2658e+07, 1.1872e+07
 3.1623e+00, 3.9811e+00, 0.0000e+00, 0.0000e+00, 0.0000e+00
 3.9811e+00, 5.0119e+00, 4.3702e+00, 2.5577e+07, 1.8011e+07
 5.0119e+00, 6.3096e+00, 5.6682e+00, 9.1419e+06, 9.1419e+06
 6.3096e+00, 7.9433e+00, 7.1117e+00, 2.7489e+07, 1.2584e+07
 7.9433e+00, 1.0000e+01, 9.1587e+00, 1.9820e+07, 1.0425e+07
 1.0000e+01, 1.2589e+01, 1.1420e+01, 2.4814e+07, 1.1484e+07
 1.2589e+01, 1.5849e+01, 1.4419e+01, 9.1071e+07, 3.9206e+07
 1.5849e+01, 1.9953e+01, 1.8282e+01, 9.1405e+07, 2.5973e+07
 1.9953e+01, 2.5119e+01, 2.2590e+01, 6.8582e+07, 2.1604e+07
 2.5119e+01, 3.1623e+01, 2.8376e+01, 1.4170e+08, 3.0896e+07
 3.1623e+01, 3.9811e+01, 3.5767e+01, 1.2744e+08, 3.0802e+07
 3.9811e+01, 5.0119e+01, 4.4467e+01, 8.9795e+07, 2.0574e+07
 5.0119e+01, 6.3096e+01, 5.5308e+01, 2.0794e+08, 3.5082e+07
 6.3096e+01, 7.9433e+01, 7.2550e+01, 2.2064e+08, 3.5524e+07
 7.9433e+01, 1.0000e+02, 9.0313e+01, 2.3267e+08, 3.7383e+07
 1.0000e+02, 1.2589e+02, 1.1191e+02, 3.2349e+08, 4.2402e+07
 1.2589e+02, 1.5849e+02, 1.4124e+02, 4.9941e+08, 5.3868e+07
 1.5849e+02, 1.9953e+02, 1.7901e+02, 5.0621e+08, 5.4316e+07
 1.9953e+02, 2.5119e+02, 2.2657e+02, 6.8341e+08, 6.3695e+07
 2.5119e+02, 3.1623e+02, 2.8471e+02, 1.0421e+09, 7.6775e+07
 3.1623e+02, 3.9811e+02, 3.5796e+02, 1.5419e+09, 1.0826e+08
 3.9811e+02, 5.0119e+02, 4.4764e+02, 2.1555e+09, 1.1650e+08
 5.0119e+02, 6.3096e+02, 5.6707e+02, 2.9362e+09, 1.3703e+08
 6.3096e+02, 7.9433e+02, 7.1486e+02, 4.1684e+09, 1.6221e+08
 7.9433e+02, 1.0000e+03, 8.9697e+02, 5.7129e+09, 1.9516e+08
 1.0000e+03, 1.2589e+03, 1.1319e+03, 7.9731e+09, 2.2781e+08
 1.2589e+03, 1.5849e+03, 1.4252e+03, 1.0980e+10, 2.5941e+08
 1.5849e+03, 1.9953e+03, 1.7929e+03, 1.5203e+10, 3.0668e+08
 1.9953e+03, 2.5119e+03, 2.2515e+03, 1.8863e+10, 3.3868e+08
 2.5119e+03, 3.1623e+03, 2.8419e+03, 2.5695e+10, 4.2300e+08
 3.1623e+03, 3.9811e+03, 3.5623e+03, 3.1323e+10, 5.7301e+08
 3.9811e+03, 5.0119e+03, 4.4945e+03, 3.4802e+10, 5.0752e+08
 5.0119e+03, 6.3096e+03, 5.6386e+03, 3.8656e+10, 5.5663e+08
 6.3096e+03, 7.9433e+03, 7.0896e+03, 3.8397e+10, 5.1632e+08
 7.9433e+03, 1.0000e+04, 8.9095e+03, 3.3093e+10, 5.5403e+08
 1.0000e+04, 1.2589e+04, 1.1194e+04, 2.7255e+10, 4.4119e+08
 1.2589e+04, 1.5849e+04, 1.4012e+04, 1.5893e+10, 3.5040e+08
 1.5849e+04, 1.9953e+04, 1.7553e+04, 9.5095e+09, 3.0447e+08
 1.9953e+04, 2.5119e+04, 2.2346e+04, 4.9859e+09, 2.2576e+08
 2.5119e+04, 3.1623e+04, 2.7839e+04, 2.9812e+09, 4.1279e+08
 3.1623e+04, 3.9811e+04, 3.4704e+04, 1.3802e+09, 1.0571e+08
 3.9811e+04, 5.0119e+04, 4.4739e+04, 6.8042e+08, 7.8597e+07
 5.0119e+04, 6.3096e+04, 5.5372e+04, 3.6974e+08, 6.8369e+07
 6.3096e+04, 7.9433e+04, 7.0570e+04, 3.2869e+08, 5.0598e+07
 7.9433e+04, 1.0000e+05, 8.8371e+04, 1.5772e+08, 2.9525e+07
 1.0000e+05, 1.2589e+05, 1.1466e+05, 2.6803e+08, 6.6020e+07
 1.2589e+05, 1.5849e+05, 1.3817e+05, 1.8056e+08, 5.5232e+07
 1.5849e+05, 1.9953e+05, 1.7539e+05, 1.0707e+08, 2.7470e+07
 1.9953e+05, 2.5119e+05, 2.2082e+05, 7.5603e+07, 2.1515e+07
 2.5119e+05, 3.1623e+05, 2.8076e+05, 3.4223e+07, 1.4392e+07
 3.1623e+05, 3.9811e+05, 3.5530e+05, 8.4452e+06, 5.9816e+06
 3.9811e+05, 5.0119e+05, 0.0000e+00, 0.0000e+00, 0.0000e+00
 5.0119e+05, 6.3096e+05, 0.0000e+00, 0.0000e+00, 0.0000e+00
 6.3096e+05, 7.9433e+05, 0.0000e+00, 0.0000e+00, 0.0000e+00
 7.9433e+05, 1.0000e+06, 0.0000e+00, 0.0000e+00, 0.0000e+00