'OMNIDIRECTIONAL FLUENCE ANALYSIS'
'MULASSIS tag ml-v01-26'
'geant4-10-01-patch-03 (5-February-2016)'
'File Created: Tue Nov 12 23:48:11 2024'
'FLU_BDY',  1, 2, ' '
'FLU_PAR', -1, 'proton', ' '
'FLU_AMN',  1,   0., 'deg'
'FLU_AMX',  1, 180., 'deg'
Lower edge of energy bin [keV], Upper edge of energy bin [keV], Mean energy of bin [keV], Fluence [particles/cm2/bin], Error in fluence/flux [particles/cm2/bin]
 1.0000e+00, 1.2589e+00, 0.0000e+00, 0.0000e+00, 0.0000e+00
 1.2589e+00, 1.5849e+00, 1.2935e+00, 8.6042e+06, 8.6042e+06
 1.5849e+00, 1.9953e+00, 1.8065e+00, 3.6664e+06, 3.6664e+06
 1.9953e+00, 2.5119e+00, 0.0000e+00, 0.0000e+00, 0.0000e+00
 2.5119e+00, 3.1623e+00, 2.6226e+00, 4.9429e+06, 4.9429e+06
 3.1623e+00, 3.9811e+00, 3.9160e+00, 9.7695e+06, 7.0550e+06
 3.9811e+00, 5.0119e+00, 4.1206e+00, 1.2189e+07, 9.0120e+06
 5.0119e+00, 6.3096e+00, 5.4628e+00, 1.2452e+07, 7.2215e+06
 6.3096e+00, 7.9433e+00, 7.2342e+00, 7.8860e+06, 5.5772e+06
 7.9433e+00, 1.0000e+01, 9.5944e+00, 1.0303e+07, 7.4206e+06
 1.0000e+01, 1.2589e+01, 1.1086e+01, 2.5935e+07, 1.0707e+07
 1.2589e+01, 1.5849e+01, 1.4194e+01, 7.4388e+07, 2.3779e+07
 1.5849e+01, 1.9953e+01, 1.8392e+01, 3.2502e+07, 1.4072e+07
 1.9953e+01, 2.5119e+01, 2.3477e+01, 4.3156e+07, 1.5197e+07
 2.5119e+01, 3.1623e+01, 2.8730e+01, 6.8421e+07, 2.3915e+07
 3.1623e+01, 3.9811e+01, 3.4998e+01, 4.9992e+07, 1.6238e+07
 3.9811e+01, 5.0119e+01, 4.4279e+01, 6.5158e+07, 1.8547e+07
 5.0119e+01, 6.3096e+01, 5.5118e+01, 1.1048e+08, 2.4736e+07
 6.3096e+01, 7.9433e+01, 7.1747e+01, 1.5861e+08, 2.8344e+07
 7.9433e+01, 1.0000e+02, 9.1438e+01, 1.2666e+08, 2.6960e+07
 1.0000e+02, 1.2589e+02, 1.1414e+02, 1.5404e+08, 2.7574e+07
 1.2589e+02, 1.5849e+02, 1.4189e+02, 2.4549e+08, 3.7432e+07
 1.5849e+02, 1.9953e+02, 1.8064e+02, 3.6077e+08, 4.5915e+07
 1.9953e+02, 2.5119e+02, 2.2548e+02, 3.8431e+08, 4.5463e+07
 2.5119e+02, 3.1623e+02, 2.8693e+02, 6.3844e+08, 6.3271e+07
 3.1623e+02, 3.9811e+02, 3.5486e+02, 1.0260e+09, 8.0427e+07
 3.9811e+02, 5.0119e+02, 4.5229e+02, 1.2636e+09, 8.9925e+07
 5.0119e+02, 6.3096e+02, 5.6779e+02, 1.8346e+09, 9.9361e+07
 6.3096e+02, 7.9433e+02, 7.1513e+02, 2.3210e+09, 1.1485e+08
 7.9433e+02, 1.0000e+03, 9.0088e+02, 3.5391e+09, 1.3994e+08
 1.0000e+03, 1.2589e+03, 1.1374e+03, 4.9116e+09, 1.7132e+08
 1.2589e+03, 1.5849e+03, 1.4241e+03, 6.6581e+09, 1.9810e+08
 1.5849e+03, 1.9953e+03, 1.7906e+03, 9.5335e+09, 3.4335e+08
 1.9953e+03, 2.5119e+03, 2.2512e+03, 1.3463e+10, 5.8127e+08
 2.5119e+03, 3.1623e+03, 2.8302e+03, 1.6439e+10, 3.1805e+08
 3.1623e+03, 3.9811e+03, 3.5656e+03, 2.1623e+10, 3.6759e+08
 3.9811e+03, 5.0119e+03, 4.4871e+03, 2.5258e+10, 3.9292e+08
 5.0119e+03, 6.3096e+03, 5.6369e+03, 2.8507e+10, 4.2256e+08
 6.3096e+03, 7.9433e+03, 7.0705e+03, 2.9469e+10, 4.3937e+08
 7.9433e+03, 1.0000e+04, 8.9373e+03, 2.6331e+10, 4.4303e+08
 1.0000e+04, 1.2589e+04, 1.1157e+04, 2.2428e+10, 4.0392e+08
 1.2589e+04, 1.5849e+04, 1.4016e+04, 1.3269e+10, 3.1365e+08
 1.5849e+04, 1.9953e+04, 1.7549e+04, 7.5969e+09, 2.6332e+08
 1.9953e+04, 2.5119e+04, 2.2389e+04, 4.6168e+09, 2.2769e+08
 2.5119e+04, 3.1623e+04, 2.8003e+04, 2.4208e+09, 1.4669e+08
 3.1623e+04, 3.9811e+04, 3.5004e+04, 1.1975e+09, 9.3448e+07
 3.9811e+04, 5.0119e+04, 4.4856e+04, 7.0632e+08, 8.0093e+07
 5.0119e+04, 6.3096e+04, 5.6218e+04, 3.6026e+08, 5.2190e+07
 6.3096e+04, 7.9433e+04, 7.1054e+04, 3.5606e+08, 6.0026e+07
 7.9433e+04, 1.0000e+05, 8.7298e+04, 1.6460e+08, 3.2566e+07
 1.0000e+05, 1.2589e+05, 1.1330e+05, 2.5229e+08, 4.7799e+07
 1.2589e+05, 1.5849e+05, 1.4309e+05, 1.3484e+08, 3.2150e+07
 1.5849e+05, 1.9953e+05, 1.7265e+05, 9.1412e+07, 2.6394e+07
 1.9953e+05, 2.5119e+05, 2.3185e+05, 7.5314e+07, 3.2806e+07
 2.5119e+05, 3.1623e+05, 2.8192e+05, 2.5418e+07, 1.2956e+07
 3.1623e+05, 3.9811e+05, 3.5249e+05, 1.6913e+07, 1.0367e+07
 3.9811e+05, 5.0119e+05, 0.0000e+00, 0.0000e+00, 0.0000e+00
 5.0119e+05, 6.3096e+05, 0.0000e+00, 0.0000e+00, 0.0000e+00
 6.3096e+05, 7.9433e+05, 0.0000e+00, 0.0000e+00, 0.0000e+00
 7.9433e+05, 1.0000e+06, 0.0000e+00, 0.0000e+00, 0.0000e+00