'OMNIDIRECTIONAL FLUENCE ANALYSIS'
'MULASSIS tag ml-v01-26'
'geant4-10-01-patch-03 (5-February-2016)'
'File Created: Tue Nov 12 23:39:45 2024'
'FLU_BDY',  1, 2, ' '
'FLU_PAR', -1, 'proton', ' '
'FLU_AMN',  1,   0., 'deg'
'FLU_AMX',  1, 180., 'deg'
Lower edge of energy bin [keV], Upper edge of energy bin [keV], Mean energy of bin [keV], Fluence [particles/cm2/bin], Error in fluence/flux [particles/cm2/bin]
 1.0000e+00, 1.2589e+00, 0.0000e+00, 0.0000e+00, 0.0000e+00
 1.2589e+00, 1.5849e+00, 0.0000e+00, 0.0000e+00, 0.0000e+00
 1.5849e+00, 1.9953e+00, 0.0000e+00, 0.0000e+00, 0.0000e+00
 1.9953e+00, 2.5119e+00, 0.0000e+00, 0.0000e+00, 0.0000e+00
 2.5119e+00, 3.1623e+00, 0.0000e+00, 0.0000e+00, 0.0000e+00
 3.1623e+00, 3.9811e+00, 3.7046e+00, 9.9092e+02, 9.9092e+02
 3.9811e+00, 5.0119e+00, 0.0000e+00, 0.0000e+00, 0.0000e+00
 5.0119e+00, 6.3096e+00, 0.0000e+00, 0.0000e+00, 0.0000e+00
 6.3096e+00, 7.9433e+00, 0.0000e+00, 0.0000e+00, 0.0000e+00
 7.9433e+00, 1.0000e+01, 9.3637e+00, 1.1731e+03, 1.1731e+03
 1.0000e+01, 1.2589e+01, 1.1034e+01, 4.3212e+03, 2.5640e+03
 1.2589e+01, 1.5849e+01, 1.4726e+01, 6.3553e+03, 3.0722e+03
 1.5849e+01, 1.9953e+01, 1.8612e+01, 6.5753e+03, 4.4337e+03
 1.9953e+01, 2.5119e+01, 2.3635e+01, 2.3566e+03, 1.6955e+03
 2.5119e+01, 3.1623e+01, 2.6910e+01, 3.2236e+03, 1.8676e+03
 3.1623e+01, 3.9811e+01, 3.3617e+01, 2.9468e+03, 1.7036e+03
 3.9811e+01, 5.0119e+01, 4.6038e+01, 5.0657e+03, 2.5800e+03
 5.0119e+01, 6.3096e+01, 5.6994e+01, 9.4327e+03, 3.3800e+03
 6.3096e+01, 7.9433e+01, 7.3281e+01, 1.0777e+04, 3.6646e+03
 7.9433e+01, 1.0000e+02, 9.2136e+01, 1.0965e+04, 3.7329e+03
 1.0000e+02, 1.2589e+02, 1.1338e+02, 1.4497e+04, 4.0868e+03
 1.2589e+02, 1.5849e+02, 1.4478e+02, 2.1825e+04, 6.7915e+03
 1.5849e+02, 1.9953e+02, 1.8062e+02, 2.5755e+04, 5.5524e+03
 1.9953e+02, 2.5119e+02, 2.2260e+02, 1.9177e+04, 4.7252e+03
 2.5119e+02, 3.1623e+02, 2.8597e+02, 3.7332e+04, 7.5616e+03
 3.1623e+02, 3.9811e+02, 3.6122e+02, 6.9549e+04, 9.4847e+03
 3.9811e+02, 5.0119e+02, 4.5353e+02, 9.1009e+04, 1.1567e+04
 5.0119e+02, 6.3096e+02, 5.7090e+02, 1.4577e+05, 1.5085e+04
 6.3096e+02, 7.9433e+02, 7.1398e+02, 1.5161e+05, 1.4121e+04
 7.9433e+02, 1.0000e+03, 8.9284e+02, 2.8483e+05, 2.0423e+04
 1.0000e+03, 1.2589e+03, 1.1420e+03, 3.1470e+05, 2.1227e+04
 1.2589e+03, 1.5849e+03, 1.4234e+03, 4.5631e+05, 2.5770e+04
 1.5849e+03, 1.9953e+03, 1.7946e+03, 7.1023e+05, 3.3477e+04
 1.9953e+03, 2.5119e+03, 2.2636e+03, 8.7413e+05, 4.0934e+04
 2.5119e+03, 3.1623e+03, 2.8311e+03, 1.0910e+06, 4.1664e+04
 3.1623e+03, 3.9811e+03, 3.5742e+03, 1.3853e+06, 4.7621e+04
 3.9811e+03, 5.0119e+03, 4.4998e+03, 1.6004e+06, 5.3699e+04
 5.0119e+03, 6.3096e+03, 5.6548e+03, 1.8014e+06, 5.7610e+04
 6.3096e+03, 7.9433e+03, 7.0990e+03, 2.0352e+06, 6.1710e+04
 7.9433e+03, 1.0000e+04, 8.9528e+03, 2.0514e+06, 6.5006e+04
 1.0000e+04, 1.2589e+04, 1.1190e+04, 2.0626e+06, 6.3311e+04
 1.2589e+04, 1.5849e+04, 1.4109e+04, 1.9120e+06, 6.6279e+04
 1.5849e+04, 1.9953e+04, 1.7843e+04, 1.9733e+06, 8.1148e+04
 1.9953e+04, 2.5119e+04, 2.2393e+04, 1.9965e+06, 7.4758e+04
 2.5119e+04, 3.1623e+04, 2.8329e+04, 2.0454e+06, 7.9594e+04
 3.1623e+04, 3.9811e+04, 3.5739e+04, 2.2373e+06, 7.9758e+04
 3.9811e+04, 5.0119e+04, 4.5194e+04, 2.9130e+06, 3.2327e+05
 5.0119e+04, 6.3096e+04, 5.6400e+04, 3.1337e+06, 1.1265e+05
 6.3096e+04, 7.9433e+04, 7.0935e+04, 4.0638e+06, 1.7993e+05
 7.9433e+04, 1.0000e+05, 8.9323e+04, 4.0909e+06, 1.1849e+05
 1.0000e+05, 1.2589e+05, 1.1235e+05, 3.9768e+06, 1.2251e+05
 1.2589e+05, 1.5849e+05, 1.4088e+05, 3.5953e+06, 1.1056e+05
 1.5849e+05, 1.9953e+05, 1.7830e+05, 3.0777e+06, 1.0388e+05
 1.9953e+05, 2.5119e+05, 2.2369e+05, 2.5086e+06, 1.0396e+05
 2.5119e+05, 3.1623e+05, 2.7863e+05, 1.6846e+06, 7.3118e+04
 3.1623e+05, 3.9811e+05, 3.4568e+05, 7.4379e+05, 4.6010e+04
 3.9811e+05, 5.0119e+05, 0.0000e+00, 0.0000e+00, 0.0000e+00
 5.0119e+05, 6.3096e+05, 0.0000e+00, 0.0000e+00, 0.0000e+00
 6.3096e+05, 7.9433e+05, 0.0000e+00, 0.0000e+00, 0.0000e+00
 7.9433e+05, 1.0000e+06, 0.0000e+00, 0.0000e+00, 0.0000e+00